#      z (A) rho (1e-6/A2) irho (1e-6/A2)
-10.00000000  20.00106706   0.74083641
 -9.90000000  20.00120567   0.74081513
 -9.80000000  20.00136084   0.74079130
 -9.70000000  20.00153435   0.74076466
 -9.60000000  20.00172814   0.74073491
 -9.50000000  20.00194433   0.74070171
 -9.40000000  20.00218525   0.74066471
 -9.30000000  20.00245342   0.74062352
 -9.20000000  20.00275158   0.74057772
 -9.10000000  20.00308269   0.74052686
 -9.00000000  20.00345000   0.74047044
 -8.90000000  20.00385700   0.74040792
 -8.80000000  20.00430745   0.74033872
 -8.70000000  20.00480542   0.74026221
 -8.60000000  20.00535532   0.74017772
 -8.50000000  20.00596186   0.74008453
 -8.40000000  20.00663011   0.73998185
 -8.30000000  20.00736552   0.73986885
 -8.20000000  20.00817391   0.73974464
 -8.10000000  20.00906151   0.73960824
 -8.00000000  20.01003498   0.73945865
 -7.90000000  20.01110141   0.73929476
 -7.80000000  20.01226835   0.73911543
 -7.70000000  20.01354380   0.73891942
 -7.60000000  20.01493629   0.73870542
 -7.50000000  20.01645481   0.73847204
 -7.40000000  20.01810889   0.73821782
 -7.30000000  20.01990858   0.73794123
 -7.20000000  20.02186447   0.73764062
 -7.10000000  20.02398769   0.73731429
 -7.00000000  20.02628994   0.73696044
 -6.90000000  20.02878346   0.73657719
 -6.80000000  20.03148109   0.73616257
 -6.70000000  20.03439619   0.73571452
 -6.60000000  20.03754271   0.73523090
 -6.50000000  20.04093516   0.73470947
 -6.40000000  20.04458860   0.73414794
 -6.30000000  20.04851863   0.73354389
 -6.20000000  20.05274136   0.73289486
 -6.10000000  20.05727344   0.73219828
 -6.00000000  20.06213199   0.73145153
 -5.90000000  20.06733459   0.73065190
 -5.80000000  20.07289926   0.72979663
 -5.70000000  20.07884444   0.72888289
 -5.60000000  20.08518890   0.72790780
 -5.50000000  20.09195174   0.72686841
 -5.40000000  20.09915237   0.72576176
 -5.30000000  20.10681038   0.72458484
 -5.20000000  20.11494555   0.72333461
 -5.10000000  20.12357778   0.72200801
 -5.00000000  20.13272702   0.72060199
 -4.90000000  20.14241318   0.71911350
 -4.80000000  20.15265611   0.71753949
 -4.70000000  20.16347548   0.71587695
 -4.60000000  20.17489073   0.71412289
 -4.50000000  20.18692095   0.71227440
 -4.40000000  20.19958486   0.71032862
 -4.30000000  20.21290067   0.70828274
 -4.20000000  20.22688599   0.70613409
 -4.10000000  20.24155778   0.70388007
 -4.00000000  20.25693222   0.70151821
 -3.90000000  20.27302464   0.69904617
 -3.80000000  20.28984940   0.69646177
 -3.70000000  20.30741982   0.69376299
 -3.60000000  20.32574808   0.69094796
 -3.50000000  20.34484512   0.68801504
 -3.40000000  20.36472057   0.68496278
 -3.30000000  20.38538264   0.68178995
 -3.20000000  20.40683804   0.67849553
 -3.10000000  20.42909190   0.67507879
 -3.00000000  20.45214772   0.67153922
 -2.90000000  20.47600726   0.66787660
 -2.80000000  20.50067047   0.66409096
 -2.70000000  20.52613548   0.66018265
 -2.60000000  20.55239849   0.65615230
 -2.50000000  20.57945377   0.65200084
 -2.40000000  20.60729357   0.64772952
 -2.30000000  20.63590815   0.64333990
 -2.20000000  20.66528571   0.63883386
 -2.10000000  20.69541238   0.63421358
 -2.00000000  20.72627224   0.62948160
 -1.90000000  20.75784733   0.62464075
 -1.80000000  20.79011762   0.61969419
 -1.70000000  20.82306108   0.61464539
 -1.60000000  20.85665369   0.60949813
 -1.50000000  20.89086951   0.60425649
 -1.40000000  20.92568068   0.59892486
 -1.30000000  20.96105757   0.59350790
 -1.20000000  20.99696876   0.58801055
 -1.10000000  21.03338121   0.58243801
 -1.00000000  21.07026029   0.57679572
 -0.90000000  21.10756991   0.57108937
 -0.80000000  21.14527261   0.56532484
 -0.70000000  21.18332970   0.55950824
 -0.60000000  21.22170137   0.55364582
 -0.50000000  21.26034682   0.54774403
 -0.40000000  21.29922441   0.54180943
 -0.30000000  21.33829178   0.53584871
 -0.20000000  21.37750600   0.52986865
 -0.10000000  21.41682374   0.52387611
 -0.00000000  21.45620139   0.51787799
  0.10000000  21.49559524   0.51188123
  0.20000000  21.53496161   0.50589276
  0.30000000  21.57425703   0.49991950
  0.40000000  21.61343837   0.49396832
  0.50000000  21.65246302   0.48804602
  0.60000000  21.69128899   0.48215934
  0.70000000  21.72987511   0.47631488
  0.80000000  21.76818115   0.47051911
  0.90000000  21.80616794   0.46477836
  1.00000000  21.84379754   0.45909879
  1.10000000  21.88103331   0.45348635
  1.20000000  21.91784009   0.44794681
  1.30000000  21.95418426   0.44248570
  1.40000000  21.99003387   0.43710831
  1.50000000  22.02535873   0.43181968
  1.60000000  22.06013049   0.42662458
  1.70000000  22.09432272   0.42152750
  1.80000000  22.12791097   0.41653267
  1.90000000  22.16087282   0.41164399
  2.00000000  22.19318797   0.40686508
  2.10000000  22.22483821   0.40219925
  2.20000000  22.25580750   0.39764951
  2.30000000  22.28608197   0.39321853
  2.40000000  22.31564993   0.38890871
  2.50000000  22.34450186   0.38472210
  2.60000000  22.37263041   0.38066048
  2.70000000  22.40003038   0.37672529
  2.80000000  22.42669869   0.37291770
  2.90000000  22.45263434   0.36923856
  3.00000000  22.47783836   0.36568847
  3.10000000  22.50231380   0.36226772
  3.20000000  22.52606563   0.35897636
  3.30000000  22.54910068   0.35581416
  3.40000000  22.57142760   0.35278067
  3.50000000  22.59305676   0.34987520
  3.60000000  22.61400019   0.34709682
  3.70000000  22.63427150   0.34444443
  3.80000000  22.65388578   0.34191671
  3.90000000  22.67285953   0.33951218
  4.00000000  22.69121057   0.33722919
  4.10000000  22.70895794   0.33506594
  4.20000000  22.72612183   0.33302051
  4.30000000  22.74272347   0.33109084
  4.40000000  22.75878507   0.32927479
  4.50000000  22.77432970   0.32757012
  4.60000000  22.78938122   0.32597451
  4.70000000  22.80396420   0.32448559
  4.80000000  22.81810384   0.32310095
  4.90000000  22.83182585   0.32181814
  5.00000000  22.84515646   0.32063468
  5.10000000  22.85812224   0.31954811
  5.20000000  22.87075013   0.31855595
  5.30000000  22.88306730   0.31765575
  5.40000000  22.89510114   0.31684508
  5.50000000  22.90687915   0.31612155
  5.60000000  22.91842896   0.31548283
  5.70000000  22.92977820   0.31492663
  5.80000000  22.94095451   0.31445074
  5.90000000  22.95198549   0.31405299
  6.00000000  22.96289864   0.31373134
  6.10000000  22.97372136   0.31348378
  6.20000000  22.98448089   0.31330844
  6.30000000  22.99520433   0.31320351
  6.40000000  23.00591857   0.31316730
  6.50000000  23.01665030   0.31319821
  6.60000000  23.02742602   0.31329477
  6.70000000  23.03827198   0.31345558
  6.80000000  23.04921421   0.31367940
  6.90000000  23.06027851   0.31396506
  7.00000000  23.07149045   0.31431154
  7.10000000  23.08287537   0.31471790
  7.20000000  23.09445840   0.31518336
  7.30000000  23.10626443   0.31570720
  7.40000000  23.11831818   0.31628886
  7.50000000  23.13064415   0.31692788
  7.60000000  23.14326668   0.31762390
  7.70000000  23.15620992   0.31837669
  7.80000000  23.16949790   0.31918611
  7.90000000  23.18315451   0.32005216
  8.00000000  23.19720351   0.32097491
  8.10000000  23.21166860   0.32195456
  8.20000000  23.22657336   0.32299139
  8.30000000  23.24194135   0.32408580
  8.40000000  23.25779607   0.32523828
  8.50000000  23.27416101   0.32644941
  8.60000000  23.29105967   0.32771985
  8.70000000  23.30851554   0.32905039
  8.80000000  23.32655218   0.33044186
  8.90000000  23.34519319   0.33189519
  9.00000000  23.36446225   0.33341142
  9.10000000  23.38438312   0.33499161
  9.20000000  23.40497968   0.33663696
  9.30000000  23.42627593   0.33834869
  9.40000000  23.44829600   0.34012813
  9.50000000  23.47106416   0.34197665
  9.60000000  23.49460487   0.34389569
  9.70000000  23.51894274   0.34588678
  9.80000000  23.54410257   0.34795148
  9.90000000  23.57010936   0.35009142
 10.00000000  23.59698829   0.35230829
 10.10000000  23.62476478   0.35460383
 10.20000000  23.65346444   0.35697983
 10.30000000  23.68311311   0.35943813
 10.40000000  23.71373685   0.36198062
 10.50000000  23.74536195   0.36460924
 10.60000000  23.77801490   0.36732597
 10.70000000  23.81172247   0.37013282
 10.80000000  23.84651160   0.37303186
 10.90000000  23.88240949   0.37602518
 11.00000000  23.91944354   0.37911492
 11.10000000  23.95764139   0.38230325
 11.20000000  23.99703087   0.38559236
 11.30000000  24.03764002   0.38898449
 11.40000000  24.07949708   0.39248189
 11.50000000  24.12263049   0.39608686
 11.60000000  24.16706886   0.39980170
 11.70000000  24.21284095   0.40362874
 11.80000000  24.25997572   0.40757035
 11.90000000  24.30850225   0.41162889
 12.00000000  24.35844975   0.41580676
 12.10000000  24.40984756   0.42010637
 12.20000000  24.46272511   0.42453013
 12.30000000  24.51711195   0.42908049
 12.40000000  24.57303766   0.43375988
 12.50000000  24.63053190   0.43857077
 12.60000000  24.68962436   0.44351560
 12.70000000  24.75034474   0.44859685
 12.80000000  24.81272274   0.45381697
 12.90000000  24.87678804   0.45917844
 13.00000000  24.94257027   0.46468372
 13.10000000  25.01009901   0.47033527
 13.20000000  25.07940371   0.47613555
 13.30000000  25.15051374   0.48208700
 13.40000000  25.22345833   0.48819206
 13.50000000  25.29826655   0.49445315
 13.60000000  25.37496726   0.50087269
 13.70000000  25.45358913   0.50745307
 13.80000000  25.53416059   0.51419666
 13.90000000  25.61670980   0.52110582
 14.00000000  25.70126462   0.52818286
 14.10000000  25.78785262   0.53543011
 14.20000000  25.87650099   0.54284982
 14.30000000  25.96723656   0.55044425
 14.40000000  26.06008576   0.55821560
 14.50000000  26.15507458   0.56616604
 14.60000000  26.25222854   0.57429772
 14.70000000  26.35157269   0.58261272
 14.80000000  26.45313154   0.59111310
 14.90000000  26.55692907   0.59980086
 15.00000000  26.66298866   0.60867796
 15.10000000  26.77133308   0.61774630
 15.20000000  26.88198448   0.62700774
 15.30000000  26.99496432   0.63646407
 15.40000000  27.11029336   0.64611703
 15.50000000  27.22799165   0.65596829
 15.60000000  27.34807845   0.66601948
 15.70000000  27.47057225   0.67627213
 15.80000000  27.59549073   0.68672773
 15.90000000  27.72285068   0.69738767
 16.00000000  27.85266806   0.70825331
 16.10000000  27.98495788   0.71932588
 16.20000000  28.11973425   0.73060658
 16.30000000  28.25701030   0.74209651
 16.40000000  28.39679817   0.75379667
 16.50000000  28.53910898   0.76570800
 16.60000000  28.68395279   0.77783134
 16.70000000  28.83133863   0.79016744
 16.80000000  28.98127439   0.80271698
 16.90000000  29.13376685   0.81548051
 17.00000000  29.28882166   0.82845850
 17.10000000  29.44644329   0.84165134
 17.20000000  29.60663500   0.85505929
 17.30000000  29.76939886   0.86868253
 17.40000000  29.93473569   0.88252112
 17.50000000  30.10264506   0.89657504
 17.60000000  30.27312526   0.91084413
 17.70000000  30.44617328   0.92532815
 17.80000000  30.62178482   0.94002673
 17.90000000  30.79995423   0.95493941
 18.00000000  30.98067451   0.97006559
 18.10000000  31.16393734   0.98540458
 18.20000000  31.34973299   1.00095557
 18.30000000  31.53805037   1.01671762
 18.40000000  31.72887699   1.03268970
 18.50000000  31.92219895   1.04887063
 18.60000000  32.11800095   1.06525914
 18.70000000  32.31626627   1.08185383
 18.80000000  32.51697675   1.09865318
 18.90000000  32.72011283   1.11565555
 19.00000000  32.92565350   1.13285919
 19.10000000  33.13357632   1.15026221
 19.20000000  33.34385742   1.16786261
 19.30000000  33.55647150   1.18565828
 19.40000000  33.77139182   1.20364699
 19.50000000  33.98859023   1.22182637
 19.60000000  34.20803715   1.24019395
 19.70000000  34.42970160   1.25874713
 19.80000000  34.65355117   1.27748321
 19.90000000  34.87955208   1.29639935
 20.00000000  35.10766917   1.31549262
 20.10000000  35.33786588   1.33475995
 20.20000000  35.57010433   1.35419817
 20.30000000  35.80434528   1.37380400
 20.40000000  36.04054817   1.39357404
 20.50000000  36.27867113   1.41350479
 20.60000000  36.51867102   1.43359264
 20.70000000  36.76050344   1.45383388
 20.80000000  37.00412272   1.47422467
 20.90000000  37.24948201   1.49476110
 21.00000000  37.49653326   1.51543914
 21.10000000  37.74522724   1.53625468
 21.20000000  37.99551360   1.55720350
 21.30000000  38.24734090   1.57828130
 21.40000000  38.50065660   1.59948367
 21.50000000  38.75540714   1.62080614
 21.60000000  39.01153793   1.64224414
 21.70000000  39.26899343   1.66379302
 21.80000000  39.52771715   1.68544804
 21.90000000  39.78765170   1.70720441
 22.00000000  40.04873883   1.72905725
 22.10000000  40.31091947   1.75100161
 22.20000000  40.57413375   1.77303249
 22.30000000  40.83832108   1.79514482
 22.40000000  41.10342015   1.81733345
 22.50000000  41.36936900   1.83959322
 22.60000000  41.63610506   1.86191887
 22.70000000  41.90356517   1.88430512
 22.80000000  42.17168567   1.90674665
 22.90000000  42.44040239   1.92923808
 23.00000000  42.70965076   1.95177401
 23.10000000  42.97936578   1.97434900
 23.20000000  43.24948215   1.99695758
 23.30000000  43.51993424   2.01959427
 23.40000000  43.79065620   2.04225353
 23.50000000  44.06158197   2.06492986
 23.60000000  44.33264535   2.08761771
 23.70000000  44.60378003   2.11031152
 23.80000000  44.87491964   2.13300575
 23.90000000  45.14599783   2.15569483
 24.00000000  45.41694827   2.17837323
 24.10000000  45.68770475   2.20103538
 24.20000000  45.95820117   2.22367578
 24.30000000  46.22837166   2.24628889
 24.40000000  46.49815054   2.26886922
 24.50000000  46.76747247   2.29141131
 24.60000000  47.03627240   2.31390970
 24.70000000  47.30448569   2.33635900
 24.80000000  47.57204811   2.35875382
 24.90000000  47.83889592   2.38108882
 25.00000000  48.10496588   2.40335872
 25.10000000  48.37019534   2.42555827
 25.20000000  48.63452223   2.44768228
 25.30000000  48.89788515   2.46972560
 25.40000000  49.16022340   2.49168316
 25.50000000  49.42147700   2.51354993
 25.60000000  49.68158676   2.53532096
 25.70000000  49.94049431   2.55699137
 25.80000000  50.19814212   2.57855634
 25.90000000  50.45447356   2.60001114
 26.00000000  50.70943296   2.62135109
 26.10000000  50.96296558   2.64257162
 26.20000000  51.21501770   2.66366823
 26.30000000  51.46553664   2.68463652
 26.40000000  51.71447078   2.70547216
 26.50000000  51.96176960   2.72617093
 26.60000000  52.20738372   2.74672869
 26.70000000  52.45126491   2.76714140
 26.80000000  52.69336613   2.78740513
 26.90000000  52.93364154   2.80751604
 27.00000000  53.17204655   2.82747040
 27.10000000  53.40853782   2.84726458
 27.20000000  53.64307330   2.86689506
 27.30000000  53.87561224   2.88635843
 27.40000000  54.10611519   2.90565140
 27.50000000  54.33454407   2.92477076
 27.60000000  54.56086212   2.94371345
 27.70000000  54.78503398   2.96247650
 27.80000000  55.00702565   2.98105707
 27.90000000  55.22680453   2.99945244
 28.00000000  55.44433942   3.01765998
 28.10000000  55.65960054   3.03567721
 28.20000000  55.87255950   3.05350175
 28.30000000  56.08318938   3.07113134
 28.40000000  56.29146466   3.08856386
 28.50000000  56.49736124   3.10579729
 28.60000000  56.70085648   3.12282972
 28.70000000  56.90192917   3.13965938
 28.80000000  57.10055950   3.15628463
 28.90000000  57.29672913   3.17270391
 29.00000000  57.49042112   3.18891581
 29.10000000  57.68161995   3.20491904
 29.20000000  57.87031152   3.22071242
 29.30000000  58.05648314   3.23629487
 29.40000000  58.24012349   3.25166546
 29.50000000  58.42122267   3.26682336
 29.60000000  58.59977211   3.28176784
 29.70000000  58.77576464   3.29649831
 29.80000000  58.94919442   3.31101428
 29.90000000  59.12005692   3.32531537
 30.00000000  59.28834896   3.33940132
 30.10000000  59.45406864   3.35327196
 30.20000000  59.61721533   3.36692724
 30.30000000  59.77778967   3.38036722
 30.40000000  59.93579353   3.39359205
 30.50000000  60.09123002   3.40660199
 30.60000000  60.24410343   3.41939741
 30.70000000  60.39441921   3.43197875
 30.80000000  60.54218399   3.44434658
 30.90000000  60.68740551   3.45650153
 31.00000000  60.83009260   3.46844436
 31.10000000  60.97025518   3.48017588
 31.20000000  61.10790423   3.49169703
 31.30000000  61.24305173   3.50300879
 31.40000000  61.37571066   3.51411227
 31.50000000  61.50589498   3.52500862
 31.60000000  61.63361958   3.53569909
 31.70000000  61.75890027   3.54618501
 31.80000000  61.88175373   3.55646778
 31.90000000  62.00219750   3.56654885
 32.00000000  62.12024994   3.57642977
 32.10000000  62.23593022   3.58611214
 32.20000000  62.34925825   3.59559763
 32.30000000  62.46025469   3.60488797
 32.40000000  62.56894091   3.61398494
 32.50000000  62.67533893   3.62289039
 32.60000000  62.77947145   3.63160622
 32.70000000  62.88136175   3.64013438
 32.80000000  62.98103372   3.64847687
 32.90000000  63.07851179   3.65663572
 33.00000000  63.17382091   3.66461304
 33.10000000  63.26698654   3.67241095
 33.20000000  63.35803459   3.68003162
 33.30000000  63.44699142   3.68747725
 33.40000000  63.53388379   3.69475009
 33.50000000  63.61873883   3.70185241
 33.60000000  63.70158403   3.70878650
 33.70000000  63.78244720   3.71555470
 33.80000000  63.86135644   3.72215936
 33.90000000  63.93834012   3.72860285
 34.00000000  64.01342684   3.73488756
 34.10000000  64.08664542   3.74101592
 34.20000000  64.15802487   3.74699033
 34.30000000  64.22759434   3.75281326
 34.40000000  64.29538315   3.75848714
 34.50000000  64.36142069   3.76401444
 34.60000000  64.42573647   3.76939764
 34.70000000  64.48836005   3.77463919
 34.80000000  64.54932102   3.77974159
 34.90000000  64.60864900   3.78470731
 35.00000000  64.66637361   3.78953883
 35.10000000  64.72252443   3.79423862
 35.20000000  64.77713099   3.79880915
 35.30000000  64.83022278   3.80325290
 35.40000000  64.88182917   3.80757233
 35.50000000  64.93197946   3.81176988
 35.60000000  64.98070278   3.81584799
 35.70000000  65.02802817   3.81980910
 35.80000000  65.07398447   3.82365561
 35.90000000  65.11860038   3.82738994
 36.00000000  65.16190438   3.83101446
 36.10000000  65.20392476   3.83453154
 36.20000000  65.24468961   3.83794353
 36.30000000  65.28422674   3.84125277
 36.40000000  65.32256374   3.84446155
 36.50000000  65.35972796   3.84757218
 36.60000000  65.39574645   3.85058690
 36.70000000  65.43064599   3.85350797
 36.80000000  65.46445305   3.85633761
 36.90000000  65.49719383   3.85907799
 37.00000000  65.52889420   3.86173129
 37.10000000  65.55957970   3.86429965
 37.20000000  65.58927555   3.86678518
 37.30000000  65.61800664   3.86918995
 37.40000000  65.64579751   3.87151603
 37.50000000  65.67267235   3.87376544
 37.60000000  65.69865499   3.87594017
 37.70000000  65.72376890   3.87804219
 37.80000000  65.74803718   3.88007343
 37.90000000  65.77148257   3.88203580
 38.00000000  65.79412744   3.88393116
 38.10000000  65.81599375   3.88576136
 38.20000000  65.83710311   3.88752820
 38.30000000  65.85747673   3.88923346
 38.40000000  65.87713545   3.89087888
 38.50000000  65.89609971   3.89246618
 38.60000000  65.91438956   3.89399703
 38.70000000  65.93202467   3.89547308
 38.80000000  65.94902432   3.89689594
 38.90000000  65.96540738   3.89826719
 39.00000000  65.98119237   3.89958838
 39.10000000  65.99639739   3.90086103
 39.20000000  66.01104017   3.90208663
 39.30000000  66.02513805   3.90326661
 39.40000000  66.03870798   3.90440241
 39.50000000  66.05176653   3.90549540
 39.60000000  66.06432990   3.90654695
 39.70000000  66.07641392   3.90755837
 39.80000000  66.08803402   3.90853097
 39.90000000  66.09920527   3.90946599
 40.00000000  66.10994240   3.91036469
 40.10000000  66.12025974   3.91122824
 40.20000000  66.13017128   3.91205783
 40.30000000  66.13969065   3.91285460
 40.40000000  66.14883113   3.91361965
 40.50000000  66.15760565   3.91435407
 40.60000000  66.16602681   3.91505892
 40.70000000  66.17410685   3.91573521
 40.80000000  66.18185769   3.91638395
 40.90000000  66.18929093   3.91700611
 41.00000000  66.19641784   3.91760263
