#      z (A) rho (1e-6/A2) irho (1e-6/A2)
-10.00000000  20.00079486   0.74103448
 -9.90000000  20.00084731   0.74103675
 -9.80000000  20.00090303   0.74103917
 -9.70000000  20.00096222   0.74104173
 -9.60000000  20.00102509   0.74104446
 -9.50000000  20.00109183   0.74104736
 -9.40000000  20.00116269   0.74105043
 -9.30000000  20.00123790   0.74105369
 -9.20000000  20.00131770   0.74105715
 -9.10000000  20.00140237   0.74106082
 -9.00000000  20.00149217   0.74106472
 -8.90000000  20.00158740   0.74106885
 -8.80000000  20.00168836   0.74107323
 -8.70000000  20.00179539   0.74107787
 -8.60000000  20.00190881   0.74108279
 -8.50000000  20.00202898   0.74108800
 -8.40000000  20.00215629   0.74109352
 -8.30000000  20.00229112   0.74109937
 -8.20000000  20.00243388   0.74110557
 -8.10000000  20.00258502   0.74111212
 -8.00000000  20.00274500   0.74111906
 -7.90000000  20.00291428   0.74112640
 -7.80000000  20.00309337   0.74113417
 -7.70000000  20.00328281   0.74114239
 -7.60000000  20.00348315   0.74115108
 -7.50000000  20.00369497   0.74116026
 -7.40000000  20.00391888   0.74116997
 -7.30000000  20.00415552   0.74118024
 -7.20000000  20.00440555   0.74119108
 -7.10000000  20.00466969   0.74120254
 -7.00000000  20.00494867   0.74121464
 -6.90000000  20.00524326   0.74122742
 -6.80000000  20.00555427   0.74124091
 -6.70000000  20.00588253   0.74125514
 -6.60000000  20.00622893   0.74127017
 -6.50000000  20.00659439   0.74128602
 -6.40000000  20.00697987   0.74130274
 -6.30000000  20.00738637   0.74132037
 -6.20000000  20.00781492   0.74133896
 -6.10000000  20.00826661   0.74135855
 -6.00000000  20.00874253   0.74137919
 -5.90000000  20.00924382   0.74140093
 -5.80000000  20.00977162   0.74142382
 -5.70000000  20.01032708   0.74144791
 -5.60000000  20.01091131   0.74147325
 -5.50000000  20.01152537   0.74149987
 -5.40000000  20.01217019   0.74152783
 -5.30000000  20.01284652   0.74155716
 -5.20000000  20.01355482   0.74158786
 -5.10000000  20.01429512   0.74161994
 -5.00000000  20.01506679   0.74165337
 -4.90000000  20.01586836   0.74168807
 -4.80000000  20.01669710   0.74172393
 -4.70000000  20.01754857   0.74176074
 -4.60000000  20.01841608   0.74179819
 -4.50000000  20.01928982   0.74183583
 -4.40000000  20.02015597   0.74187305
 -4.30000000  20.02099537   0.74190897
 -4.20000000  20.02178203   0.74194242
 -4.10000000  20.02248117   0.74197182
 -4.00000000  20.02304692   0.74199511
 -3.90000000  20.02341947   0.74200958
 -3.80000000  20.02352184   0.74201176
 -3.70000000  20.02325593   0.74199723
 -3.60000000  20.02249810   0.74196040
 -3.50000000  20.02109417   0.74189431
 -3.40000000  20.01885380   0.74179040
 -3.30000000  20.01554451   0.74163817
 -3.20000000  20.01088517   0.74142494
 -3.10000000  20.00453946   0.74113556
 -3.00000000  19.99610918   0.74075206
 -2.90000000  19.98512802   0.74025343
 -2.80000000  19.97105584   0.73961532
 -2.70000000  19.95327405   0.73880983
 -2.60000000  19.93108251   0.73780540
 -2.50000000  19.90369838   0.73656674
 -2.40000000  19.87025743   0.73505490
 -2.30000000  19.82981835   0.73322744
 -2.20000000  19.78137047   0.73103880
 -2.10000000  19.72384520   0.72844081
 -2.00000000  19.65613164   0.72538340
 -1.90000000  19.57709616   0.72181545
 -1.80000000  19.48560622   0.71768592
 -1.70000000  19.38055791   0.71294504
 -1.60000000  19.26090679   0.70754573
 -1.50000000  19.12570127   0.70144509
 -1.40000000  18.97411762   0.69460599
 -1.30000000  18.80549528   0.68699863
 -1.20000000  18.61937135   0.67860215
 -1.10000000  18.41551259   0.66940602
 -1.00000000  18.19394351   0.65941133
 -0.90000000  17.95496913   0.64863182
 -0.80000000  17.69919092   0.63709458
 -0.70000000  17.42751486   0.62484043
 -0.60000000  17.14115068   0.61192388
 -0.50000000  16.84160169   0.59841267
 -0.40000000  16.53064517   0.58438688
 -0.30000000  16.21030346   0.56993765
 -0.20000000  15.88280657   0.55516547
 -0.10000000  15.55054734   0.54017817
 -0.00000000  15.21603070   0.52508862
  0.10000000  14.88181885   0.51001230
  0.20000000  14.55047426   0.49506467
  0.30000000  14.22450271   0.48035864
  0.40000000  13.90629847   0.46600212
  0.50000000  13.59809350   0.45209568
  0.60000000  13.30191271   0.43873056
  0.70000000  13.01953648   0.42598697
  0.80000000  12.75247181   0.41393284
  0.90000000  12.50193265   0.40262283
  1.00000000  12.26882978   0.39209798
  1.10000000  12.05377003   0.38238563
  1.20000000  11.85706435   0.37349975
  1.30000000  11.67874374   0.36544172
  1.40000000  11.51858197   0.35820132
  1.50000000  11.37612373   0.35175802
  1.60000000  11.25071664   0.34608237
  1.70000000  11.14154563   0.34113761
  1.80000000  11.04766837   0.33688126
  1.90000000  10.96805022   0.33326664
  2.00000000  10.90159760   0.33024445
  2.10000000  10.84718885   0.32776411
  2.20000000  10.80370178   0.32577500
  2.30000000  10.77003741   0.32422757
  2.40000000  10.74513967   0.32307418
  2.50000000  10.72801089   0.32226985
  2.60000000  10.71772331   0.32177273
  2.70000000  10.71342678   0.32154446
  2.80000000  10.71435302   0.32155040
  2.90000000  10.71981700   0.32175962
  3.00000000  10.72921575   0.32214493
  3.10000000  10.74202523   0.32268267
  3.20000000  10.75779572   0.32335254
  3.30000000  10.77614615   0.32413731
  3.40000000  10.79675777   0.32502261
  3.50000000  10.81936754   0.32599652
  3.60000000  10.84376151   0.32704937
  3.70000000  10.86976836   0.32817341
  3.80000000  10.89725339   0.32936252
  3.90000000  10.92611289   0.33061198
  4.00000000  10.95626913   0.33191827
  4.10000000  10.98766595   0.33327879
  4.20000000  11.02026478   0.33469179
  4.30000000  11.05404143   0.33615611
  4.40000000  11.08898319   0.33767116
  4.50000000  11.12508655   0.33923672
  4.60000000  11.16235523   0.34085293
  4.70000000  11.20079866   0.34252017
  4.80000000  11.24043068   0.34423901
  4.90000000  11.28126856   0.34601018
  5.00000000  11.32333222   0.34783456
  5.10000000  11.36664361   0.34971306
  5.20000000  11.41122625   0.35164672
  5.30000000  11.45710484   0.35363660
  5.40000000  11.50430503   0.35568381
  5.50000000  11.55285316   0.35778948
  5.60000000  11.60277617   0.35995479
  5.70000000  11.65410142   0.36218092
  5.80000000  11.70685664   0.36446908
  5.90000000  11.76106984   0.36682047
  6.00000000  11.81676928   0.36923633
  6.10000000  11.87398341   0.37171788
  6.20000000  11.93274085   0.37426637
  6.30000000  11.99307034   0.37688305
  6.40000000  12.05500077   0.37956917
  6.50000000  12.11856106   0.38232597
  6.60000000  12.18378026   0.38515473
  6.70000000  12.25068743   0.38805670
  6.80000000  12.31931166   0.39103315
  6.90000000  12.38968207   0.39408533
  7.00000000  12.46182775   0.39721451
  7.10000000  12.53577779   0.40042196
  7.20000000  12.61156119   0.40370892
  7.30000000  12.68920692   0.40707665
  7.40000000  12.76874384   0.41052642
  7.50000000  12.85020070   0.41405946
  7.60000000  12.93360613   0.41767701
  7.70000000  13.01898860   0.42138031
  7.80000000  13.10637640   0.42517059
  7.90000000  13.19579763   0.42904907
  8.00000000  13.28728017   0.43301695
  8.10000000  13.38085165   0.43707543
  8.20000000  13.47653943   0.44122571
  8.30000000  13.57437061   0.44546895
  8.40000000  13.67437193   0.44980632
  8.50000000  13.77656982   0.45423896
  8.60000000  13.88099035   0.45876800
  8.70000000  13.98765919   0.46339456
  8.80000000  14.09660159   0.46811973
  8.90000000  14.20784238   0.47294459
  9.00000000  14.32140592   0.47787019
  9.10000000  14.43731608   0.48289758
  9.20000000  14.55559622   0.48802775
  9.30000000  14.67626915   0.49326171
  9.40000000  14.79935712   0.49860042
  9.50000000  14.92488180   0.50404482
  9.60000000  15.05286423   0.50959581
  9.70000000  15.18332481   0.51525429
  9.80000000  15.31628328   0.52102111
  9.90000000  15.45175867   0.52689710
 10.00000000  15.58976931   0.53288305
 10.10000000  15.73033276   0.53897972
 10.20000000  15.87346585   0.54518785
 10.30000000  16.01918457   0.55150812
 10.40000000  16.16750413   0.55794120
 10.50000000  16.31843887   0.56448771
 10.60000000  16.47200227   0.57114823
 10.70000000  16.62820693   0.57792331
 10.80000000  16.78706452   0.58481346
 10.90000000  16.94858576   0.59181914
 11.00000000  17.11278045   0.59894077
 11.10000000  17.27965737   0.60617874
 11.20000000  17.44922429   0.61353339
 11.30000000  17.62148800   0.62100500
 11.40000000  17.79645419   0.62859382
 11.50000000  17.97412750   0.63630007
 11.60000000  18.15451151   0.64412388
 11.70000000  18.33760865   0.65206537
 11.80000000  18.52342025   0.66012460
 11.90000000  18.71194650   0.66830157
 12.00000000  18.90318641   0.67659624
 12.10000000  19.09713785   0.68500851
 12.20000000  19.29379747   0.69353825
 12.30000000  19.49316072   0.70218525
 12.40000000  19.69522184   0.71094927
 12.50000000  19.89997382   0.71983000
 12.60000000  20.10740844   0.72882709
 12.70000000  20.31751618   0.73794011
 12.80000000  20.53028628   0.74716861
 12.90000000  20.74570672   0.75651206
 13.00000000  20.96376416   0.76596989
 13.10000000  21.18444400   0.77554146
 13.20000000  21.40773034   0.78522608
 13.30000000  21.63360595   0.79502301
 13.40000000  21.86205233   0.80493144
 13.50000000  22.09304965   0.81495051
 13.60000000  22.32657677   0.82507931
 13.70000000  22.56261126   0.83531685
 13.80000000  22.80112934   0.84566212
 13.90000000  23.04210594   0.85611403
 14.00000000  23.28551470   0.86667142
 14.10000000  23.53132792   0.87733310
 14.20000000  23.77951661   0.88809782
 14.30000000  24.03005051   0.89896425
 14.40000000  24.28289804   0.90993103
 14.50000000  24.53802636   0.92099674
 14.60000000  24.79540136   0.93215989
 14.70000000  25.05498766   0.94341896
 14.80000000  25.31674864   0.95477234
 14.90000000  25.58064645   0.96621841
 15.00000000  25.84664201   0.97775546
 15.10000000  26.11469503   0.98938175
 15.20000000  26.38476405   1.00109549
 15.30000000  26.65680643   1.01289481
 15.40000000  26.93077836   1.02477782
 15.50000000  27.20663492   1.03674258
 15.60000000  27.48433007   1.04878708
 15.70000000  27.76381667   1.06090928
 15.80000000  28.04504653   1.07310709
 15.90000000  28.32797040   1.08537838
 16.00000000  28.61253802   1.09772096
 16.10000000  28.89869813   1.11013261
 16.20000000  29.18639852   1.12261107
 16.30000000  29.47558603   1.13515403
 16.40000000  29.76620659   1.14775915
 16.50000000  30.05820525   1.16042404
 16.60000000  30.35152624   1.17314628
 16.70000000  30.64611294   1.18592342
 16.80000000  30.94190796   1.19875297
 16.90000000  31.23885316   1.21163240
 17.00000000  31.53688968   1.22455917
 17.10000000  31.83595800   1.23753069
 17.20000000  32.13599792   1.25054435
 17.30000000  32.43694865   1.26359752
 17.40000000  32.73874884   1.27668753
 17.50000000  33.04133659   1.28981170
 17.60000000  33.34464950   1.30296733
 17.70000000  33.64862472   1.31615168
 17.80000000  33.95319898   1.32936201
 17.90000000  34.25830862   1.34259556
 18.00000000  34.56388967   1.35584956
 18.10000000  34.86987782   1.36912121
 18.20000000  35.17620854   1.38240773
 18.30000000  35.48281705   1.39570629
 18.40000000  35.78963841   1.40901409
 18.50000000  36.09660755   1.42232829
 18.60000000  36.40365929   1.43564608
 18.70000000  36.71072841   1.44896462
 18.80000000  37.01774966   1.46228108
 18.90000000  37.32465786   1.47559264
 19.00000000  37.63138785   1.48889648
 19.10000000  37.93787462   1.50218976
 19.20000000  38.24405331   1.51546968
 19.30000000  38.54985925   1.52873343
 19.40000000  38.85522800   1.54197822
 19.50000000  39.16009541   1.55520127
 19.60000000  39.46439765   1.56839980
 19.70000000  39.76807123   1.58157107
 19.80000000  40.07105307   1.59471233
 19.90000000  40.37328054   1.60782088
 20.00000000  40.67469146   1.62089400
 20.10000000  40.97522419   1.63392904
 20.20000000  41.27481762   1.64692334
 20.30000000  41.57341125   1.65987427
 20.40000000  41.87094518   1.67277924
 20.50000000  42.16736019   1.68563568
 20.60000000  42.46259777   1.69844105
 20.70000000  42.75660011   1.71119284
 20.80000000  43.04931019   1.72388859
 20.90000000  43.34067178   1.73652585
 21.00000000  43.63062948   1.74910221
 21.10000000  43.91912875   1.76161532
 21.20000000  44.20611595   1.77406285
 21.30000000  44.49153835   1.78644250
 21.40000000  44.77534419   1.79875204
 21.50000000  45.05748266   1.81098926
 21.60000000  45.33790399   1.82315201
 21.70000000  45.61655940   1.83523816
 21.80000000  45.89340120   1.84724565
 21.90000000  46.16838276   1.85917245
 22.00000000  46.44145856   1.87101660
 22.10000000  46.71258419   1.88277616
 22.20000000  46.98171639   1.89444926
 22.30000000  47.24881308   1.90603407
 22.40000000  47.51383332   1.91752882
 22.50000000  47.77673741   1.92893178
 22.60000000  48.03748683   1.94024130
 22.70000000  48.29604430   1.95145574
 22.80000000  48.55237378   1.96257354
 22.90000000  48.80644048   1.97359320
 23.00000000  49.05821089   1.98451327
 23.10000000  49.30765276   1.99533234
 23.20000000  49.55473511   2.00604907
 23.30000000  49.79942828   2.01666217
 23.40000000  50.04170389   2.02717041
 23.50000000  50.28153486   2.03757263
 23.60000000  50.51889543   2.04786769
 23.70000000  50.75376114   2.05805455
 23.80000000  50.98610883   2.06813219
 23.90000000  51.21591668   2.07809967
 24.00000000  51.44316416   2.08795610
 24.10000000  51.66783206   2.09770064
 24.20000000  51.88990247   2.10733252
 24.30000000  52.10935880   2.11685103
 24.40000000  52.32618574   2.12625548
 24.50000000  52.54036929   2.13554529
 24.60000000  52.75189673   2.14471989
 24.70000000  52.96075661   2.15377879
 24.80000000  53.16693877   2.16272155
 24.90000000  53.37043430   2.17154778
 25.00000000  53.57123553   2.18025716
 25.10000000  53.76933605   2.18884939
 25.20000000  53.96473066   2.19732426
 25.30000000  54.15741539   2.20568160
 25.40000000  54.34738744   2.21392128
 25.50000000  54.53464521   2.22204323
 25.60000000  54.71918829   2.23004743
 25.70000000  54.90101738   2.23793393
 25.80000000  55.08013434   2.24570278
 25.90000000  55.25654214   2.25335414
 26.00000000  55.43024485   2.26088816
 26.10000000  55.60124761   2.26830508
 26.20000000  55.76955662   2.27560517
 26.30000000  55.93517914   2.28278873
 26.40000000  56.09812340   2.28985613
 26.50000000  56.25839868   2.29680777
 26.60000000  56.41601519   2.30364408
 26.70000000  56.57098411   2.31036557
 26.80000000  56.72331756   2.31697274
 26.90000000  56.87302852   2.32346617
 27.00000000  57.02013091   2.32984646
 27.10000000  57.16463945   2.33611424
 27.20000000  57.30656974   2.34227020
 27.30000000  57.44593816   2.34831504
 27.40000000  57.58276187   2.35424951
 27.50000000  57.71705881   2.36007438
 27.60000000  57.84884763   2.36579047
 27.70000000  57.97814771   2.37139862
 27.80000000  58.10497908   2.37689969
 27.90000000  58.22936246   2.38229458
 28.00000000  58.35131918   2.38758423
 28.10000000  58.47087119   2.39276957
 28.20000000  58.58804099   2.39785159
 28.30000000  58.70285166   2.40283128
 28.40000000  58.81532681   2.40770968
 28.50000000  58.92549053   2.41248782
 28.60000000  59.03336741   2.41716678
 28.70000000  59.13898247   2.42174763
 28.80000000  59.24236117   2.42623148
 28.90000000  59.34352937   2.43061946
 29.00000000  59.44251330   2.43491270
 29.10000000  59.53933954   2.43911236
 29.20000000  59.63403502   2.44321959
 29.30000000  59.72662694   2.44723559
 29.40000000  59.81714279   2.45116155
 29.50000000  59.90561034   2.45499866
 29.60000000  59.99205757   2.45874814
 29.70000000  60.07651266   2.46241122
 29.80000000  60.15900400   2.46598913
 29.90000000  60.23956012   2.46948310
 30.00000000  60.31820973   2.47289438
 30.10000000  60.39498162   2.47622421
 30.20000000  60.46990471   2.47947386
 30.30000000  60.54300798   2.48264457
 30.40000000  60.61432048   2.48573762
 30.50000000  60.68387131   2.48875425
 30.60000000  60.75168957   2.49169574
 30.70000000  60.81780438   2.49456335
 30.80000000  60.88224482   2.49735833
 30.90000000  60.94503997   2.50008195
 31.00000000  61.00621882   2.50273547
 31.10000000  61.06581031   2.50532013
 31.20000000  61.12384331   2.50783721
 31.30000000  61.18034657   2.51028793
 31.40000000  61.23534871   2.51267354
 31.50000000  61.28887826   2.51499528
 31.60000000  61.34096356   2.51725438
 31.70000000  61.39163281   2.51945207
 31.80000000  61.44091405   2.52158955
 31.90000000  61.48883511   2.52366803
 32.00000000  61.53542364   2.52568872
 32.10000000  61.58070707   2.52765280
 32.20000000  61.62471260   2.52956146
 32.30000000  61.66746721   2.53141586
 32.40000000  61.70899765   2.53321717
 32.50000000  61.74933038   2.53496652
 32.60000000  61.78849164   2.53666507
 32.70000000  61.82650736   2.53831393
 32.80000000  61.86340322   2.53991421
 32.90000000  61.89920460   2.54146703
 33.00000000  61.93393658   2.54297347
 33.10000000  61.96762395   2.54443459
 33.20000000  62.00029119   2.54585147
 33.30000000  62.03196246   2.54722515
 33.40000000  62.06266160   2.54855667
 33.50000000  62.09241213   2.54984704
 33.60000000  62.12123724   2.55109728
 33.70000000  62.14915978   2.55230836
 33.80000000  62.17620226   2.55348128
 33.90000000  62.20238686   2.55461699
 34.00000000  62.22773541   2.55571643
 34.10000000  62.25226938   2.55678055
 34.20000000  62.27600992   2.55781025
 34.30000000  62.29897780   2.55880644
 34.40000000  62.32119344   2.55977000
 34.50000000  62.34267692   2.56070180
 34.60000000  62.36344796   2.56160271
 34.70000000  62.38352591   2.56247355
 34.80000000  62.40292978   2.56331516
 34.90000000  62.42167822   2.56412833
 35.00000000  62.43978951   2.56491388
 35.10000000  62.45728160   2.56567256
 35.20000000  62.47417206   2.56640516
 35.30000000  62.49047813   2.56711240
 35.40000000  62.50621667   2.56779503
 35.50000000  62.52140421   2.56845376
 35.60000000  62.53605693   2.56908929
 35.70000000  62.55019067   2.56970232
 35.80000000  62.56382089   2.57029350
 35.90000000  62.57696276   2.57086351
 36.00000000  62.58963108   2.57141297
 36.10000000  62.60184031   2.57194252
 36.20000000  62.61360459   2.57245278
 36.30000000  62.62493773   2.57294433
 36.40000000  62.63585321   2.57341777
 36.50000000  62.64636420   2.57387366
 36.60000000  62.65648352   2.57431257
 36.70000000  62.66622370   2.57473503
 36.80000000  62.67559696   2.57514158
 36.90000000  62.68461521   2.57553273
 37.00000000  62.69329004   2.57590898
 37.10000000  62.70163276   2.57627083
 37.20000000  62.70965439   2.57661875
 37.30000000  62.71736563   2.57695322
 37.40000000  62.72477693   2.57727467
 37.50000000  62.73189844   2.57758355
 37.60000000  62.73874003   2.57788029
 37.70000000  62.74531132   2.57816531
 37.80000000  62.75162164   2.57843900
 37.90000000  62.75768007   2.57870178
 38.00000000  62.76349542   2.57895401
 38.10000000  62.76907627   2.57919607
 38.20000000  62.77443093   2.57942831
 38.30000000  62.77956748   2.57965110
 38.40000000  62.78449376   2.57986477
 38.50000000  62.78921736   2.58006965
 38.60000000  62.79374567   2.58026605
 38.70000000  62.79808584   2.58045430
 38.80000000  62.80224480   2.58063469
 38.90000000  62.80622927   2.58080751
 39.00000000  62.81004577   2.58097304
 39.10000000  62.81370058   2.58113156
 39.20000000  62.81719983   2.58128333
 39.30000000  62.82054942   2.58142862
 39.40000000  62.82375507   2.58156766
 39.50000000  62.82682231   2.58170069
 39.60000000  62.82975650   2.58182796
 39.70000000  62.83256281   2.58194967
 39.80000000  62.83524624   2.58206606
 39.90000000  62.83781164   2.58217733
 40.00000000  62.84026367   2.58228368
 40.10000000  62.84260684   2.58238532
 40.20000000  62.84484551   2.58248241
 40.30000000  62.84698388   2.58257516
 40.40000000  62.84902603   2.58266374
 40.50000000  62.85097585   2.58274831
 40.60000000  62.85283713   2.58282903
 40.70000000  62.85461352   2.58290608
 40.80000000  62.85630853   2.58297960
 40.90000000  62.85792553   2.58304973
 41.00000000  62.85946779   2.58311663
