# intensity: 1.00531441992001
# background: 0
#           Q (1/A)             dQ (1/A)                    R                   dR               theory              fresnel
 0.00488466451417625 0.000471948763665195        0.99255645562      0.0099396280427     1.00531441992001                    1
 0.00518513839119999 0.000472603481907012        0.99908966958      0.0097026006905     1.00531441992001                    1
 0.00548341924348481  0.00047324719949831        0.99054074247      0.0094078575827     1.00531441992001                    1
 0.00578389329547309 0.000473852802529506        0.99220589136      0.0091879897753     1.00531441992001                    1
  0.0060843666109497  0.00047451374938563        0.99521099827      0.0089928617811     1.00531441992001                    1
 0.00638264754455057 0.000475161290941636         0.9910941871      0.0087768001729     1.00531441992001                    1
 0.00668312068259167 0.000475816180978799         1.0035262949      0.0086597492705     1.00531441992001                    1
 0.00698359437872125 0.000476504884959584          1.003484517      0.0084887851699     1.00531441992001                    1
 0.00728406797503925 0.000477177329113268         1.0077949005      0.0083510225276     1.00531441992001                    1
 0.00758234786783213 0.000477859762068693         1.0037073557      0.0081814379599     1.00531441992001                    1
 0.00788501419744036 0.000478547645839891         1.0061677814      0.0080515669827     1.00531441992001                    1
  0.0081832945242855 0.000479274180510101         1.0083162219      0.0079362019444     1.00531441992001                    1
  0.0084837670256447 0.000479980912275724         1.0099019004       0.007823300272      1.0053098152682                    1
 0.00878204711702977 0.000480697655409849         1.0002502873      0.0076624495266     1.00526837073309                    1
 0.00908251937255344 0.000481392548529353        0.98977781796      0.0075029248595     1.00497887484625                    1
 0.00938299215186562 0.000482123751150135         1.0057271755      0.0074738865584     1.00371373004329                    1
  0.0096834647967662 0.000482922027067822         1.0179692508      0.0074309118505    0.999838983279184                    1
 0.00998393665015506 0.000483610815913174        0.99409475368      0.0072227612286    0.991525070795606                    1
  0.0102822160770083 0.000484429148164352        0.98126013376      0.0070709091958    0.978920489455574    0.598280028661684
  0.0105826876409616 0.000485163273118021        0.96557079428      0.0069097847483    0.964745410226289    0.334455793557786
  0.0108831603616036 0.000485966919420189        0.95494102033       0.006776368561    0.952749504882174     0.23266008132492
  0.0111814386854727 0.000486781606365464         0.9335523236      0.0065975597424    0.944572154698974    0.175020720371213
  0.0114841027169522 0.000487536847910817        0.93579798661      0.0065290846308    0.939446678189608    0.136921428457924
  0.0117845743046593 0.000488333762127695        0.92877895196      0.0064217230262    0.936260297813746    0.110439801508351
  0.0120828521395566 0.000489173749292244        0.92348824952      0.0063252993807    0.934097893327681   0.0910838122737777
  0.0123833233866281 0.000489986984283002        0.91562445892      0.0062195411894    0.932471168447754   0.0762305517421502
   0.012683794457388 0.000490827738053259        0.92563519686      0.0049602064962    0.930891043769319   0.0646326601132197
  0.0129833547036142 0.000491672024525181        0.92257700231      0.0049021915907     0.92785253113763   0.0554153230416596
  0.0132825424704257 0.000492490255342632        0.91717124339      0.0048372829556    0.917758309400724   0.0479510813591204
  0.0135852065627981 0.000493352818174329        0.90037429252      0.0047315717935    0.886422987368179   0.0417497992652492
  0.0138834833067396 0.000494172375059039        0.83641334702       0.004454900781    0.816734640405462   0.0366704543290018
  0.0141839534289291 0.000495082721145269         0.7166140363      0.0039708365371      0.7023569233701   0.0323715161620151
  0.0144844220418067 0.000495971877152966        0.56265444416      0.0033487379406    0.563825057175148   0.0287300195588809
  0.0147826994907644 0.000496792086684094        0.42278237259       0.002761443377    0.430614500247569   0.0256421827391534
  0.0150831676860064  0.00049768125547741        0.31197918368      0.0022673553324    0.318448195431421   0.0229666696273938
  0.0153836369729372 0.000498624291701072        0.23244066618       0.001884312321    0.239316836867407   0.0206522028899196
  0.0156819124739105 0.000499487437284634        0.18717647962      0.0016451039689    0.195829074983481    0.018652424487815
  0.0159823813182057 0.000500453525339731        0.16713398525      0.0015254140551     0.17075141703381   0.0168899870454199
  0.0162828499351893 0.000501382582658997        0.14365747857      0.0013855537065    0.142626177429031   0.0153415594000699
  0.0165833183188612 0.000502264289042869        0.11209439349      0.0011947747213    0.109259946717058   0.0139752368287204
  0.0168837864652215 0.000503231291903954       0.084020905044      0.0010107185336   0.0849317046736977   0.0127647609042494
  0.0171842543712702 0.000504142948484107       0.075530092617     0.00094364527649   0.0775473993986854   0.0116883639476135
  0.0174825284742877 0.000505112053652639       0.077997655962     0.00094880132501   0.0786401019207737   0.0107345115080382
  0.0177829958857008 0.000506102276323978       0.075725999664     0.00092318491046   0.0749643603207061  0.00987400680378492
    0.01808215931636 0.000507036963384543       0.065307243713     0.00084358078101   0.0621364206347731  0.00910455454528809
  0.0183817363918356 0.000507985534183214       0.047906631888     0.00070862763505   0.0461619030780715  0.00841049927849336
  0.0186822030303015  0.00050899812041663       0.035613957884     0.00060067730185   0.0355852837552893  0.00778193571679404
  0.0189826680934553 0.000510001504653319       0.033500942488     0.00057538721213   0.0336045457956577  0.00721303237902337
   0.019283134193298 0.000511004133612884       0.035268315532     0.00058413857347   0.0365634692843653   0.0066968973269415
  0.0195827164885044  0.00051198078214124       0.037115480967     0.00059305814761   0.0382885689616434  0.00622890038657609
  0.0198827542945593 0.000512998108450036       0.035356193167     0.00057198328936   0.0351935108527765  0.00580171546451545
  0.0201823372841257 0.000513988328251487       0.029745034527     0.00051734722358   0.0281137649982214  0.00541218134766076
  0.0204819224923715 0.000515064132464844       0.020255846333     0.00042040835542   0.0206704716742435  0.00505572961625361
  0.0207832669379816 0.000516082966637352       0.016469470809     0.00037428560048   0.0161859243309998  0.00472711900801296
   0.021083731321942 0.000517109865677041       0.015853957355     0.00036298935324   0.0156506762393536  0.00442633491830916
  0.0213828779040625 0.000518100734938765         0.0174294174     0.00037653709128   0.0174474178532445  0.00415087959972043
  0.0216824656540361 0.000519187346988454       0.018004586756     0.00037857019158   0.0190105846493062  0.00389669827166223
  0.0219829278150488 0.000520252349832664         0.0179972752     0.00037437409313   0.0185210676392055  0.00366149188924336
  0.0222833909707503 0.000521260009053999       0.015433405296     0.00033968596457    0.015815833550872  0.00344418261476049
  0.0225816602862114 0.000522369687177875        0.01193771611     0.00029786651002   0.0121514138772374  0.00324453770277681
  0.0228843163202185 0.000523460616336371      0.0089974535092     0.00025589694342   0.0090670242734625  0.00305685084047121
  0.0231825849910316 0.000524490693620785      0.0077740889157     0.00023531983652   0.0076489757433902  0.00288526243332763
  0.0234839143078561 0.000525662971474172      0.0077964206421     0.00023304309604  0.00780901200615418  0.00272421978375321
  0.0237843746269914 0.000526749297516847      0.0087095924978     0.00024358111119  0.00870069111391944  0.00257490129809383
  0.0240831044890339 0.000527826137745525      0.0091092633595     0.00024645576098  0.00927761446053825  0.00243664833589244
  0.0243835665175372 0.000528914707806203      0.0086124527004     0.00023713792526  0.00891485374340412  0.00230700650449553
   0.024684890880128 0.000530009382763725      0.0074306700724      0.0002180510394  0.00762814041604932  0.00218569794900865
   0.024983157514985 0.000531192570191894        0.00560149601     0.00018767092468  0.00596795574271528  0.00207351480848875
  0.0252836172965453 0.000532269865060377      0.0045007514429     0.00016689361271  0.00454232972822407  0.00196781811959596
  0.0255832175343819 0.000533375670941968      0.0037973396015     0.00015076717164  0.00373888296896593  0.00186916068401977
  0.0258832003070829 0.000534566733840554      0.0038925692181     0.00015260163967  0.00351682563155658  0.00177659841970662
  0.0261828009662796 0.000535693418939318      0.0033272543771     0.00013979194436  0.00354429044622494  0.00168989609995677
  0.0264832592795809 0.000536866126012523      0.0037176504157     0.00014582413007   0.0034544362347107  0.00160827729766989
  0.0267837172145705 0.000538064933752927      0.0033482941652     0.00013704089379   0.0030916840650081  0.00153160360479342
   0.027081981285135 0.000539172534222623      0.0033042377908     0.00013467523666  0.00261157141258154  0.00146002489423493
  0.0273832898079258  0.00054038218675201      0.0032916950816     0.00013298801479  0.00237156661018514  0.00139197386152199
  0.0276828952285311  0.00054154995429052      0.0034613616969      0.0001348810764  0.00274069857219497  0.00132825054944465
  0.0279824998448149 0.000542691820675775      0.0043493695635     0.00014936572156  0.00385989731941636  0.00126818392709046
  0.0282838049746791 0.000543951822686566      0.0060400598658     0.00017402025309  0.00556051617294045   0.0012112091210965
  0.0285842605517862 0.000545135590066269      0.0072157673085     0.00018665696829  0.00737539040271791  0.00115758863076246
  0.0288838687991232 0.000546326753858345      0.0086143296474     0.00020389381122  0.00875709002712269  0.00110708070312209
  0.0291829770128658 0.000547524630435649      0.0088590239808     0.00019951097079  0.00928874451074212   0.0010594106318367
  0.0294847800147707 0.000548702137078576      0.0083579242096     0.00019693030434  0.00882067545116765  0.00101391612749854
  0.0297816918176493 0.000549969214712942       0.007201323859     0.00018101398529  0.00754278579389703 0.000971546808864091
  0.0300821453141733 0.000551202079657111      0.0059889379826     0.00016209121214  0.00582690475864848 0.000930928261728811
  0.0303839501461552 0.000552375501131408      0.0045582049826     0.00014146916733  0.00415393067410546  0.00089226696316431
  0.0306830510142862 0.000553588679234582      0.0034506183148     0.00012223870686  0.00292286954327112  0.00085593500840067
  0.0309835032078751 0.000554892708080434      0.0027109966529     0.00010773194173  0.00228161827664339   0.0008213027984688
  0.0312839549581522 0.000556160781675752      0.0022848712836     9.5583051373e-05  0.00217502722473272 0.000788424058609941
  0.0315822128268196  0.00055740515154549      0.0025350671522     0.00010259690132  0.00237724871563478 0.000757414454703893
   0.031882663682461 0.000558615941909065      0.0023956723957     9.7258829749e-05  0.00262137134933307 0.000727719412661424
  0.0321831140827907 0.000559900651682601       0.002592715911     0.00010179058489  0.00270006389713624 0.000699480723404547
  0.0324813705954737 0.000561216977507488      0.0023139476863     9.4496054094e-05  0.00253533177153948 0.000672804017791021
  0.0327818200761675 0.000562421910578457       0.001953647525      8.699182822e-05  0.00217275147631399 0.000647217533274526
  0.0330822690865497 0.000563744524965944      0.0017002261902     0.00010204820571  0.00174059719793946 0.000622847892177893
  0.0333805242082483 0.000565020855806621      0.0013626242317     8.9576750871e-05  0.00138067031109874 0.000599791171981188
  0.0336809722729947 0.000566240509359426      0.0012078667388     8.5055095802e-05  0.00117816228756789 0.000577643792567097
  0.0339836132638258 0.000567631659626796      0.0010800949978     7.5187838792e-05  0.00115019890326602 0.000556368231131948
   0.034284060356961 0.000568918683526675      0.0012668450438     8.5330352828e-05    0.001239224638023  0.00053621591275174
  0.0345823135593634 0.000570157886525011      0.0011598780148     7.9958339438e-05  0.00135191816485595 0.000517113305829023
  0.0348849504552945 0.000571507797758849      0.0011077680396     7.5234555018e-05  0.00140605935343227 0.000498599177022923
  0.0351832026720487 0.000572756466290388      0.0012918842831     8.3689414431e-05  0.00135791360627389 0.000481163956645266
  0.0354814570054683 0.000574185014271567      0.0010889255447     7.6386888935e-05  0.00121628522858636 0.000464490585406527
  0.0357840923864887 0.000575492113856751     0.00085663184762     6.4588125994e-05  0.00102413227423437 0.000448310125427444
  0.0360823430962585 0.000576814013645996     0.00076591569079     6.2577624763e-05 0.000846346493181127 0.000433053277779438
  0.0363827866761868 0.000578135744604278     0.00061108645201     5.6657498855e-05 0.000725642847754168 0.000418340120293839
  0.0366810363612961  0.00057946729758721     0.00061592233171     5.3838215424e-05 0.000680782628584448 0.000404352192874981
  0.0369814789005885 0.000580858204963913     0.00067239192803     5.7208390152e-05 0.000696913742204166 0.000390852149181788
  0.0372819209125692 0.000582194400778049     0.00064869170728      5.572504336e-05 0.000739698778710549 0.000377915178901647
  0.0375823623922381 0.000583475284369447     0.00068853069796     5.5258500794e-05 0.000771034691033464 0.000365513121506385
  0.0378849966931517 0.000584755198127042     0.00064845368209     5.5612142815e-05 0.000764629008549089 0.000353534435574585
  0.0381832437326406  0.00058623107636369      0.0005904971556     5.1927724387e-05 0.000715169310059627 0.000342209201717661
  0.0384836835873741 0.000587585869509828     0.00058731348827     5.1288983149e-05 0.000635092333277781 0.000331258796980766
  0.0387841228907959 0.000588945187492785     0.00049175010337     4.4823132707e-05 0.000547840139957694  0.00032074602607115
  0.0390823682963002 0.000590375414933468      0.0004142742182      4.291381351e-05 0.000476379595689286 0.000310722166904605
  0.0393828064920861  0.00059168263279164     0.00039461258935     4.1601393658e-05 0.000432719367013916 0.000301020105109804
  0.0396854374601906 0.000593111813574315     0.00037394915479     3.7919882877e-05 0.000417939502297421 0.000291629625253836
  0.0398849969149059 0.000593990231452005     0.00040196077667     4.0158894279e-05 0.000419535608328842 0.000285638598086245
  0.0404814830538597 0.000596827859102224     0.00044821554984      4.303337521e-05  0.00043195049012345 0.000268631254739276
  0.0410823535458433 0.000599673156514684     0.00045376293406     4.2594012718e-05 0.000398436941307807 0.000252767361389525
  0.0416832216885797 0.000602473525275685     0.00025829108974     3.2331318994e-05  0.00032854164589859 0.000238064380037105
  0.0422818941483318 0.000605296158921537     0.00026094987983     3.2154731886e-05 0.000275100526836517 0.000224469242973133
   0.042882757499549 0.000608066475153815     0.00028390270287     3.2804343671e-05 0.000251518916452547 0.000211791712753579
  0.0434836183985189 0.000611044631331632     0.00027704080396     3.2044948206e-05 0.000235526888282887 0.000200001572369176
  0.0440822809244284  0.00061398163321658      0.0002886525907     3.2133695022e-05 0.000214609547731886 0.000189063641237444
  0.0446831368268788 0.000616800200663626      0.0001777110952     2.5230153753e-05 0.000193998490607177 0.000178831089819497
   0.045281799534224  0.00061976975216711     0.00015462386344     2.3878960903e-05 0.000173941336026966 0.000169318645992757
  0.0458804544432681 0.000622755646843531     0.00018642422623     2.5058118293e-05 0.000147056283866318 0.000160433547630952
  0.0464834984458384  0.00062561452529129     0.00013825791421     2.1594737516e-05 0.000118108887301564 0.000152067568807675
  0.0470821480933382 0.000628697798140463     7.5136023902e-05     1.7156870472e-05 0.000105452873609507 0.000144297548905671
  0.0476808002975459 0.000631597672255003     0.00010772754536     1.9221556612e-05 0.000112921860059733 0.000137019721742324
  0.0482750581564864 0.000634723701757571     8.2324834894e-05     1.7044185141e-05 0.000122585174916773 0.000130245516077073
  0.0488824724860767 0.000637629635170906     7.5251464116e-05     1.6092544395e-05 0.000125391892115435  0.00012375030036663
   0.049483307018473 0.000640633852234141     0.00011054216869     1.8112799325e-05 0.000147928288195455 0.000117720624551601
  0.0500819481625672 0.000643725753625968      0.0002151472786     2.3418999814e-05 0.000233502778804614 0.000112075304844013
  0.0506827770134436 0.000646826383504706     0.00036852197907     2.9204464936e-05 0.000388026541091273 0.000106746896022586
  0.0512770208947516 0.000649821911599101     0.00062438857216     3.7389455892e-05 0.000547640537615326 0.000101785981435523
  0.0518734576637975 0.000652893392470383     0.00071142094351     3.9229394051e-05 0.000625373786134578 9.70942848084486e-05
  0.0524830502974283 0.000656080879267869     0.00065462054014     3.7191886578e-05 0.000571472428247803 9.25761371164633e-05
   0.053083867361289 0.000659236822669718     0.00049410011005     3.1397382111e-05 0.000419462483421835 8.83782422045982e-05
  0.0536824908966997 0.000662273108700468     0.00036482254627     2.7180953496e-05 0.000253121122653262 8.44305134323725e-05
    0.05428330186804 0.000665385420419662     0.00022621223033     2.1650682244e-05 0.000142568613511495 8.06882886924625e-05
   0.054884104508127  0.00066865054633961     0.00022846855212     2.0828955544e-05 0.000106877771904158 7.71518697118515e-05
  0.0554827187776955  0.00067186473097408     0.00016959885062     1.8383492591e-05 0.000114938952801625 7.38195781642531e-05
  0.0560835203472673 0.000674873800024904     0.00012815869187     1.5967510843e-05 0.000123128617810364 7.06546408838507e-05
   0.056684318710591 0.000678035614176043     9.8830922522e-05     1.4122158693e-05 0.000109961129848777 6.76580711663005e-05
  0.0572829181793115 0.000681428775836081     0.00011251249926     1.4496558771e-05   8.434907694761e-05  6.4829300644346e-05
  0.0578793239833607 0.000684484294194897     0.00011943783835     1.4831012539e-05  6.7268244787307e-05 6.21568572090287e-05
  0.0584823081872705 0.000687747087350361     0.00010305847524     1.3751703243e-05 6.84260373777051e-05 5.95938847749915e-05
  0.0590808977881234 0.000690962055789101     7.1071310774e-05     1.1623150281e-05 7.83005708850704e-05 5.71793175728193e-05
  0.0596772936572312 0.000694410629069705     7.8960138423e-05     1.2041446942e-05  8.1025866912713e-05 5.48943517023997e-05
